# Wilkinson Microwave Anisotropy Probe (WMAP) 7-year data release.
# WMAP 7-Year Combined TT Power Spectrum, version 4.0 (January 2010)
#
# References: - WMAP Explanatory Supplement: http://lambda.gsfc.nasa.gov/
#             - Larson, et.al. (2010)
#
# Column 1 = multipole moment l
# Column 2 = TT power spectrum, units = uK^2, =  l(l+1)/2pi * C_l.
#             This uses the maximum likelihood of the marginalized distribution 
#             at that l, for l up to and including 32.  
#             For l > 32, the Master estimate is used.
# Column 3 = 'Error' derived from diagonal terms of Fisher matrix, units = uK^2.
#             Included only as an estimate of their magnitude.  The
#             multipole moments are slightly coupled, so a correct
#             treatment of errors requires use of the entire Fisher matrix.
# Column 4 = portion of column3 error attributed to measurement errors,
#             in "2SN + NN" form, units = uK^2.
# Column 5 = portion of column3 error attributed to cosmic variance, 
#             assuming the best-fit LCDM model
#
           2       200.8669       928.2459         4.8058       928.2335
           3      1050.6551       727.6663         5.1563       727.6481
           4       694.2891       596.4357         5.4240       596.4110
           5      1516.6019       508.4064         5.6645       508.3749
           6       668.6091       447.3383         5.8999       447.2994
           7      1375.1285       403.5627         6.1381       403.5161
           8       615.1197       370.5298         6.3756       370.4750
           9       671.8557       346.0378         6.6240       345.9744
          10       741.5825       326.5010         6.8716       326.4286
          11       944.4397       311.0601         7.1236       310.9785
          12       773.9083       299.0179         7.3836       298.9267
          13       781.1546       289.2401         7.6467       289.1390
          14       816.6047       280.8271         7.9068       280.7158
          15      1049.7436       273.5508         8.1648       273.4289
          16       590.9440       267.4051         8.4241       267.2724
          17      1044.9716       262.5900         8.6911       262.4461
          18       664.1794       259.1547         8.9703       258.9994
          19       848.1386       256.4304         9.2535       256.2634
          20       730.0336       253.8091         9.5309       253.6301
          21       652.8780       251.3807         9.8050       251.1894
          22       534.6604       249.3392        10.0799       249.1354
          23       751.2205       247.6869        10.3575       247.4703
          24       792.3003       246.3688        10.6370       246.1390
          25       759.6284       245.2740        10.9173       245.0309
          26       867.1429       244.3228        11.1969       244.0661
          27      1087.9582       243.5838        11.4778       243.3132
          28      1239.0935       243.1169        11.7624       242.8322
          29      1131.2484       242.8235        12.0485       242.5244
          30       864.0617       242.6050        12.3341       242.2912
          31      1124.2874       242.4925        12.6206       242.1638
          32      1525.7716       242.5288        12.9091       242.1850
          33      1127.1169       242.6873        13.1993       242.3281
          34      1129.3990       242.9337        13.4904       242.5588
          35       822.1558       243.2641        13.7830       242.8733
          36      1110.3750       243.6814        14.0770       243.2745
          37      1276.2469       244.1876        14.3728       243.7643
          38      1378.3400       244.7816        14.6705       244.3416
          39      1391.8361       245.4503        14.9700       244.9933
          40      1883.9990       246.1786        15.2709       245.7045
          41      1347.5020       246.9549        15.5732       246.4634
          42      1523.6240       247.7774        15.8767       247.2682
          43      1576.5970       248.6470        16.1817       248.1199
          44      1408.3409       249.5645        16.4883       249.0192
          45      1226.1410       250.5310        16.7967       249.9673
          46      1179.0010       251.5466        17.1069       250.9642
          47      1574.0909       252.6088        17.4191       252.0075
          48      1002.3490       253.7148        17.7331       253.0943
          49      1671.6060       254.8617        18.0492       254.2218
          50      1495.0920       256.0468        18.3670       255.3872
          51      1224.8230       257.2680        18.6867       256.5884
          52      1662.5959       258.5242        19.0083       257.8244
          53      1139.1760       259.8149        19.3319       259.0947
          54      1162.6470       261.1399        19.6576       260.3989
          55      1609.9830       262.4985        19.9855       261.7366
          56      1623.2100       263.8904        20.3154       263.1073
          57      1453.1071       265.3153        20.6475       264.5106
          58      1843.5229       266.7725        20.9817       265.9461
          59      1362.4330       268.2619        21.3182       267.4135
          60      2074.6531       269.7832        21.6577       268.9125
          61      1473.7050       271.3358        21.9990       270.4425
          62      2230.1169       272.9188        22.3427       272.0027
          63      1792.7770       274.5311        22.6887       273.5919
          64      1367.8320       276.1718        23.0375       275.2093
          65      1741.2250       277.8399        23.3883       276.8538
          66      1761.8700       279.5348        23.7417       278.5247
          67      1495.6570       281.2560        24.0976       280.2218
          68      1990.7170       283.0038        24.4562       281.9451
          69      2366.1030       284.7780        24.8172       283.6946
          70      1668.2340       286.5787        25.1805       285.4703
          71      1900.5260       288.4058        25.5468       287.2722
          72      1462.3770       290.2586        25.9156       289.0994
          73      2679.3430       292.1361        26.2873       290.9510
          74      2166.9839       294.0376        26.6614       292.8264
          75      1984.4960       295.9622        27.0379       294.7245
          76      1631.8260       297.9092        27.4175       296.6449
          77      1921.9690       299.8785        27.7995       298.5872
          78      1643.2970       301.8699        28.1845       300.5513
          79      1816.8550       303.8835        28.5719       302.5373
          80      2456.1499       305.9192        28.9626       304.5451
          81      2091.1560       307.9768        29.3556       306.5746
          82      2994.0591       310.0564        29.7516       308.6257
          83      2110.7671       312.1581        30.1503       310.6986
          84      1699.5980       314.2818        30.5521       312.7932
          85      2469.9431       316.4275        30.9567       314.9095
          86      2496.2339       318.5951        31.3641       317.0475
          87      2319.6841       320.7837        31.7745       319.2061
          88      2020.2670       322.9923        32.1878       321.3844
          89      2836.8220       325.2197        32.6040       323.5812
          90      2251.3679       327.4648        33.0231       325.7955
          91      2530.1379       329.7270        33.4452       328.0264
          92      2506.7141       332.0053        33.8700       330.2731
          93      2989.7920       334.2990        34.2976       332.5350
          94      2423.8479       336.6077        34.7277       334.8115
          95      2230.7900       338.9305        35.1607       337.1018
          96      2276.3230       341.2671        35.5966       339.4055
          97      2735.1130       343.6166        36.0351       341.7219
          98      1906.3120       345.9786        36.4765       344.0504
          99      2766.9380       348.3525        36.9205       346.3905
         100      2972.0081       350.7377        37.3673       348.7415
         101      2572.8579       353.1338        37.8167       351.1031
         102      2807.6770       355.5401        38.2689       353.4745
         103      2644.4861       357.9562        38.7237       355.8554
         104      3145.8469       360.3815        39.1815       358.2452
         105      2291.2061       362.8155        39.6417       360.6433
         106      2860.4009       365.2579        40.1046       363.0495
         107      3257.1240       367.7079        40.5701       365.4630
         108      3931.6609       370.1653        41.0381       367.8834
         109      3098.1360       372.6296        41.5088       370.3104
         110      3349.7910       375.1003        41.9822       372.7435
         111      2983.4080       377.5768        42.4580       375.1821
         112      3258.4419       380.0584        42.9366       377.6252
         113      2264.7500       382.5439        43.4176       380.0720
         114      2096.9690       385.0325        43.9010       382.5215
         115      3115.2170       387.5230        44.3869       384.9726
         116      3831.3220       390.0148        44.8753       387.4245
         117      4352.6831       392.5067        45.3659       389.8762
         118      4036.5791       394.9978        45.8586       392.3268
         119      3521.2671       397.4875        46.3537       394.7754
         120      2842.1450       399.9746        46.8510       397.2212
         121      4382.4121       402.4583        47.3504       399.6632
         122      3486.0510       404.9380        47.8520       402.1007
         123      3898.8130       407.4125        48.3556       404.5326
         124      2855.1680       409.8812        48.8612       406.9585
         125      3360.8960       412.3432        49.3688       409.3771
         126      3618.4080       414.7978        49.8783       411.7880
         127      3488.6780       417.2441        50.3898       414.1902
         128      3673.6201       419.6813        50.9031       416.5829
         129      3294.9810       422.1088        51.4181       418.9654
         130      3879.8491       424.5257        51.9348       421.3369
         131      3503.8579       426.9311        52.4533       423.6966
         132      3228.2629       429.3243        52.9735       426.0436
         133      3753.5459       431.7040        53.4949       428.3768
         134      3764.7661       434.0695        54.0182       430.6953
         135      4210.9932       436.4197        54.5428       432.9979
         136      4827.8198       438.7535        55.0688       435.2838
         137      4046.6860       441.0700        55.5959       437.5521
         138      4310.5059       443.3683        56.1246       439.8016
         139      4560.9229       445.6474        56.6542       442.0315
         140      4117.2998       447.9064        57.1849       444.2409
         141      4334.5762       450.1445        57.7168       446.4289
         142      4492.0742       452.3606        58.2497       448.5945
         143      4399.6631       454.5539        58.7834       450.7369
         144      3912.4670       456.7237        59.3180       452.8553
         145      5190.5649       458.8687        59.8534       454.9484
         146      4000.5911       460.9884        60.3896       457.0158
         147      4315.4941       463.0819        60.9262       459.0565
         148      3870.3000       465.1483        61.4635       461.0696
         149      3836.4280       467.1868        62.0012       463.0544
         150      4559.8662       469.1965        62.5394       465.0099
         151      4167.7368       471.1767        63.0782       466.9354
         152      4490.1362       473.1269        63.6169       468.8304
         153      4927.7842       475.0466        64.1557       470.6945
         154      4073.5061       476.9354        64.6952       472.5272
         155      4922.2510       478.7929        65.2344       474.3281
         156      4154.7949       480.6186        65.7744       476.0966
         157      4643.2871       482.4120        66.3138       477.8324
         158      5527.2959       484.1727        66.8536       479.5350
         159      5000.0249       485.9003        67.3930       481.2040
         160      4964.1929       487.5944        67.9327       482.8389
         161      4601.1362       489.2545        68.4721       484.4394
         162      4712.2510       490.8802        69.0109       486.0050
         163      4532.3989       492.4711        69.5499       487.5352
         164      5248.5210       494.0268        70.0886       489.0297
         165      4796.2700       495.5468        70.6267       490.4880
         166      4902.0010       497.0309        71.1653       491.9098
         167      5183.6870       498.4784        71.7019       493.2946
         168      5253.5908       499.8890        72.2387       494.6419
         169      5102.0762       501.2626        72.7755       495.9515
         170      4368.1929       502.5983        73.3100       497.2230
         171      4648.1821       503.8959        73.8445       498.4557
         172      5112.1709       505.1552        74.3787       499.6495
         173      4926.5562       506.3757        74.9123       500.8038
         174      4900.0239       507.5568        75.4437       501.9184
         175      4952.7388       508.6985        75.9757       502.9929
         176      4883.4438       509.8001        76.5060       504.0268
         177      4992.5308       510.8610        77.0345       505.0194
         178      4920.9048       511.8809        77.5613       505.9707
         179      6112.9790       512.8597        78.0891       506.8799
         180      5298.0752       513.7965        78.6159       507.7463
         181      4320.3569       514.6905        79.1390       508.5699
         182      4941.3521       515.5416        79.6610       509.3499
         183      4840.7900       516.3495        80.1826       510.0858
         184      5557.7808       517.1133        80.7013       510.7773
         185      5835.4580       517.8329        81.2196       511.4237
         186      5137.7798       518.5074        81.7340       512.0248
         187      5262.7559       519.1367        82.2483       512.5799
         188      6216.9419       519.7205        82.7606       513.0887
         189      5983.1411       520.2576        83.2698       513.5505
         190      5887.0830       520.7482        83.7772       513.9650
         191      5580.3320       521.1919        84.2837       514.3318
         192      5986.4961       521.5878        84.7865       514.6505
         193      5743.1641       521.9356        85.2870       514.9203
         194      5348.7822       522.2348        85.7851       515.1409
         195      4880.2920       522.4852        86.2804       515.3120
         196      5572.3809       522.6864        86.7745       515.4331
         197      5480.8760       522.8374        87.2626       515.5038
         198      5914.2051       522.9384        87.7503       515.5235
         199      5424.5039       522.9888        88.2350       515.4919
         200      6011.5518       522.9879        88.7163       515.4084
         201      5186.3071       522.9357        89.1940       515.2729
         202      5781.3530       522.8322        89.6682       515.0855
         203      6001.8120       522.6781        90.1399       514.8467
         204      6299.3672       522.4737        90.6081       514.5570
         205      5725.5371       522.2195        91.0735       514.2167
         206      5672.2959       521.9154        91.5338       513.8261
         207      5425.3818       521.5627        91.9926       513.3858
         208      5385.2798       521.1606        92.4461       512.8958
         209      4549.1260       520.7105        92.8969       512.3569
         210      6090.9429       520.2123        93.3443       511.7692
         211      5920.4668       519.6668        93.7891       511.1333
         212      5700.6880       519.0737        94.2293       510.4492
         213      6129.6582       518.4337        94.6648       509.7176
         214      5658.4028       517.7473        95.0984       508.9386
         215      6806.2910       517.0149        95.5284       508.1129
         216      5889.7080       516.2362        95.9529       507.2404
         217      5355.5039       515.4123        96.3748       506.3218
         218      6248.1299       514.5433        96.7929       505.3572
         219      5302.5200       513.6291        97.2061       504.3469
         220      6278.2378       512.6707        97.6161       503.2915
         221      6270.6992       511.6682        98.0226       502.1911
         222      6213.1909       510.6216        98.4239       501.0461
         223      5750.1592       509.5318        98.8221       499.8568
         224      5358.1870       508.3987        99.2158       498.6235
         225      5385.7002       507.2225        99.6053       497.3464
         226      5946.6450       506.0039        99.9904       496.0260
         227      5970.5542       504.7428       100.3708       494.6625
         228      4909.8989       503.4400       100.7477       493.2562
         229      5100.9072       502.0954       101.1197       491.8074
         230      5604.5181       500.7094       101.4881       490.3163
         231      5898.0908       499.2821       101.8502       488.7833
         232      6509.1592       497.8142       102.2095       487.2086
         233      6141.3770       496.3056       102.5627       485.5926
         234      4899.2412       494.7570       102.9125       483.9354
         235      6095.3569       493.1681       103.2568       482.2373
         236      6215.4019       491.5397       103.5968       480.4987
         237      5020.4731       489.8717       103.9312       478.7198
         238      5939.4790       488.1646       104.2610       476.9007
         239      5762.4521       486.4184       104.5857       475.0418
         240      6125.0732       484.6338       104.9057       473.1434
         241      5682.4102       482.8106       105.2203       471.2057
         242      5369.3350       480.9491       105.5291       469.2288
         243      5648.5088       479.0500       105.8337       467.2131
         244      5169.0610       477.1131       106.1325       465.1589
         245      6414.5508       475.1387       106.4258       463.0662
         246      5710.8960       473.1270       106.7126       460.9355
         247      6073.4009       471.0786       106.9954       458.7668
         248      5672.9082       468.9934       107.2723       456.5605
         249      4642.2280       466.8715       107.5424       454.3167
         250      5516.8350       464.7137       107.8080       452.0357
         251      4841.1289       462.5198       108.0671       449.7178
         252      5808.1592       460.2908       108.3200       447.3639
         253      5189.9941       458.0279       108.5675       444.9749
         254      4783.3252       455.7319       108.8087       442.5520
         255      5231.1572       453.4038       109.0433       440.0961
         256      6067.5239       451.0448       109.2730       437.6080
         257      5302.0171       448.6559       109.4971       435.0890
         258      5171.5000       446.2378       109.7154       432.5399
         259      4804.7749       443.7913       109.9263       429.9615
         260      5415.4878       441.3180       110.1331       427.3549
         261      5204.5078       438.8183       110.3335       424.7211
         262      5963.3281       436.2933       110.5276       422.0610
         263      5839.8359       433.7441       110.7168       419.3754
         264      4915.2808       431.1715       110.9002       416.6653
         265      4444.9922       428.5762       111.0774       413.9316
         266      5413.2080       425.9597       111.2499       411.1753
         267      4863.8901       423.3223       111.4159       408.3972
         268      5588.2578       420.6649       111.5754       405.5982
         269      4678.6001       417.9889       111.7305       402.7792
         270      4292.9229       415.2948       111.8791       399.9410
         271      5176.7920       412.5837       112.0227       397.0846
         272      6136.8560       409.8563       112.1605       394.2109
         273      4753.7378       407.1135       112.2927       391.3206
         274      5516.3340       404.3564       112.4193       388.4147
         275      4401.7290       401.5855       112.5404       385.4939
         276      3901.6360       398.8018       112.6561       382.5592
         277      5230.1211       396.0064       112.7668       379.6113
         278      4729.7822       393.1995       112.8705       376.6511
         279      5394.5288       390.3826       112.9700       373.6795
         280      4199.7422       387.5562       113.0638       370.6972
         281      4515.4502       384.7214       113.1529       367.7050
         282      5427.4858       381.8787       113.2361       364.7039
         283      5574.8218       379.0289       113.3137       361.6944
         284      4584.0142       376.1729       113.3863       358.6776
         285      4206.4858       373.3118       113.4540       355.6542
         286      4664.7710       370.4458       113.5159       352.6248
         287      4278.8770       367.5763       113.5733       349.5904
         288      4206.9058       364.7037       113.6252       346.5517
         289      4738.3262       361.8289       113.6725       343.5094
         290      4593.9551       358.9527       113.7146       340.4644
         291      3474.5630       356.0757       113.7515       337.4174
         292      4666.5942       353.1991       113.7841       334.3692
         293      4649.3691       350.3230       113.8112       331.3204
         294      4367.1660       347.4489       113.8340       328.2720
         295      4132.1631       344.5769       113.8521       325.2245
         296      4504.5488       341.7081       113.8654       322.1787
         297      4210.8032       338.8430       113.8735       319.1354
         298      3952.2839       335.9827       113.8779       316.0953
         299      4241.9849       333.1277       113.8777       313.0590
         300      5052.4331       330.2787       113.8728       310.0274
         301      3522.7549       327.4364       113.8636       307.0012
         302      4184.6792       324.6015       113.8499       303.9808
         303      3602.8220       321.7749       113.8327       300.9671
         304      4078.7949       318.9568       113.8108       297.9606
         305      4097.3931       316.1481       113.7851       294.9620
         306      3637.5791       313.3492       113.7548       291.9718
         307      3811.3511       310.5611       113.7211       288.9908
         308      3830.4661       307.7843       113.6840       286.0195
         309      3646.5000       305.0191       113.6424       283.0584
         310      4010.9241       302.2664       113.5972       280.1083
         311      3871.0969       299.5269       113.5486       277.1697
         312      3552.6370       296.8010       113.4965       274.2433
         313      3456.5649       294.0894       113.4408       271.3296
         314      2965.1780       291.3926       113.3818       268.4291
         315      3703.1890       288.7114       113.3197       265.5427
         316      4018.1060       286.0463       113.2546       262.6707
         317      3206.9280       283.3980       113.1868       259.8138
         318      3090.9209       280.7668       113.1154       256.9725
         319      3822.0630       278.1541       113.0418       254.1481
         320      3865.6899       275.5601       112.9658       251.3406
         321      2877.6770       272.9849       112.8867       248.5505
         322      3628.9500       270.4294       112.8054       245.7784
         323      3347.4241       267.8943       112.7222       243.0248
         324      3453.5391       265.3797       112.6368       240.2901
         325      3256.8450       262.8859       112.5490       237.5747
         326      3666.8110       260.4142       112.4596       234.8795
         327      3079.9399       257.9649       112.3685       232.2052
         328      3161.8789       255.5388       112.2760       229.5521
         329      3274.2690       253.1364       112.1825       226.9210
         330      2890.4780       250.7576       112.0872       224.3119
         331      3122.8501       248.4036       111.9913       221.7257
         332      2726.7161       246.0749       111.8946       219.1631
         333      2648.7520       243.7722       111.7975       216.6245
         334      3109.8989       241.4957       111.6995       214.1107
         335      2830.2400       239.2465       111.6019       211.6221
         336      3099.2390       237.0253       111.5041       209.1598
         337      2981.9751       234.8325       111.4071       206.7239
         338      3035.5339       232.6680       111.3099       204.3147
         339      2578.2261       230.5331       111.2142       201.9329
         340      3373.8569       228.4277       111.1190       199.5790
         341      2471.1631       226.3528       111.0253       197.2535
         342      2869.9890       224.3084       110.9325       194.9570
         343      2692.4109       222.2959       110.8425       192.6899
         344      2747.9900       220.3149       110.7537       190.4529
         345      2646.4780       218.3666       110.6674       188.2463
         346      2699.2251       216.4511       110.5836       186.0708
         347      2299.0020       214.5692       110.5027       183.9268
         348      2329.0740       212.7215       110.4254       181.8149
         349      2387.7671       210.9081       110.3510       179.7356
         350      2304.6741       209.1298       110.2805       177.6893
         351      2591.9370       207.3868       110.2135       175.6766
         352      2473.3311       205.6801       110.1524       173.6973
         353      2647.5259       204.0084       110.0948       171.7515
         354      2461.6890       202.3717       110.0409       169.8391
         355      2343.7429       200.7712       109.9934       167.9599
         356      2314.0400       199.2057       109.9503       166.1140
         357      2197.8931       197.6756       109.9125       164.3012
         358      2370.1179       196.1801       109.8791       162.5215
         359      2085.0120       194.7201       109.8517       160.7747
         360      2550.8269       193.2954       109.8305       159.0609
         361      2682.0850       191.9056       109.8147       157.3800
         362      2322.2300       190.5506       109.8050       155.7319
         363      2432.5139       189.2300       109.8004       154.1165
         364      2456.5149       187.9455       109.8043       152.5337
         365      1796.2360       186.6959       109.8149       150.9835
         366      1924.8020       185.4796       109.8300       149.4659
         367      2161.4490       184.2986       109.8529       147.9807
         368      2113.3569       183.1527       109.8839       146.5279
         369      2332.2859       182.0413       109.9221       145.1075
         370      1957.3521       180.9633       109.9658       143.7193
         371      2171.7561       179.9215       110.0201       142.3633
         372      2205.8101       178.9138       110.0819       141.0395
         373      2332.5291       177.9394       110.1499       139.7478
         374      1984.7380       177.0009       110.2287       138.4880
         375      2326.0901       176.0960       110.3151       137.2603
         376      1964.2080       175.2270       110.4126       136.0645
         377      1742.0240       174.3892       110.5143       134.9006
         378      2350.8879       173.5882       110.6294       133.7685
         379      2296.5720       172.8200       110.7516       132.6681
         380      1941.4821       172.0874       110.8858       131.5994
         381      1856.5410       171.3886       111.0293       130.5624
         382      1717.5530       170.7236       111.1823       129.5571
         383      1936.7180       170.0917       111.3443       128.5832
         384      2047.8870       169.4952       111.5187       127.6409
         385      1729.5649       168.9305       111.7005       126.7301
         386      1656.6500       168.4023       111.8970       125.8507
         387      2364.1831       167.9076       112.1039       125.0027
         388      1834.0570       167.4452       112.3197       124.1861
         389      1818.4680       167.0186       112.5498       123.4008
         390      1819.3190       166.6269       112.7932       122.6467
         391      1741.4010       166.2657       113.0436       121.9239
         392      1754.0590       165.9413       113.3103       121.2323
         393      1577.7520       165.6495       113.5878       120.5719
         394      2185.0100       165.3909       113.8768       119.9426
         395      1795.0830       165.1671       114.1801       119.3443
         396      1676.0760       164.9770       114.4962       118.7772
         397      1491.2520       164.8222       114.8277       118.2411
         398      1638.3700       164.6978       115.1676       117.7360
         399      1522.1260       164.6106       115.5262       117.2619
         400      1910.6780       164.5544       115.8944       116.8188
         401      1694.3550       164.5343       116.2800       116.4065
         402      1745.0520       164.5461       116.6778       116.0246
         403      1597.1730       164.5907       117.0895       115.6726
         404      1670.5570       164.6674       117.5148       115.3500
         405      1753.6790       164.7771       117.9558       115.0561
         406      2020.4310       164.9170       118.4092       114.7907
         407      2046.5580       165.0879       118.8766       114.5529
         408      1811.4170       165.2890       119.3577       114.3425
         409      1591.3370       165.5195       119.8518       114.1589
         410      1428.6770       165.7788       120.3588       114.0016
         411      2047.6000       166.0690       120.8823       113.8700
         412      1648.3920       166.3853       121.4162       113.7637
         413      1721.4430       166.7306       121.9650       113.6821
         414      1632.4950       167.1037       122.5277       113.6249
         415      1890.4160       167.5030       123.1026       113.5913
         416      1945.8510       167.9290       123.6911       113.5811
         417      1540.4969       168.3804       124.2917       113.5937
         418      1641.9360       168.8575       124.9056       113.6285
         419      1649.2581       169.3588       125.5313       113.6852
         420      1681.1360       169.8857       126.1708       113.7632
         421      1625.3080       170.4367       126.8232       113.8620
         422      1933.4919       171.0116       127.4883       113.9812
         423      1936.6880       171.6088       128.1645       114.1202
         424      1908.4900       172.2303       128.8552       114.2787
         425      1578.3530       172.8723       129.5556       114.4560
         426      1766.5590       173.5370       130.2692       114.6519
         427      1707.3900       174.2239       130.9955       114.8657
         428      1569.7791       174.9306       131.7323       115.0970
         429      2041.6320       175.6577       132.4804       115.3454
         430      1516.1790       176.4047       133.2399       115.6103
         431      1661.0400       177.1724       134.0122       115.8913
         432      1813.5341       177.9586       134.7946       116.1881
         433      1778.6080       178.7638       135.5885       116.5000
         434      1899.2770       179.5872       136.3932       116.8266
         435      1803.5510       180.4287       137.2089       117.1675
         436      1576.6650       181.2881       138.0359       117.5223
         437      1896.2710       182.1642       138.8727       117.8904
         438      1929.0129       183.0564       139.7193       118.2715
         439      1773.0920       183.9643       140.5755       118.6651
         440      1778.1331       184.8890       141.4428       119.0708
         441      1859.6400       185.8310       142.3228       119.4881
         442      2248.6421       186.7849       143.2084       119.9165
         443      1708.8650       187.7550       144.1057       120.3557
         444      1563.6520       188.7396       145.0129       120.8052
         445      1835.8080       189.7364       145.9274       121.2645
         446      1726.0210       190.7480       146.8529       121.7334
         447      1734.9230       191.7718       147.7865       122.2112
         448      1907.6010       192.8091       148.7300       122.6977
         449      1799.6080       193.8576       149.6810       123.1924
         450      1880.0490       194.9193       150.6424       123.6948
         451      2020.3260       195.9931       151.6131       124.2045
         452      2245.1230       197.0770       152.5908       124.7212
         453      2041.0500       198.1696       153.5741       125.2444
         454      1841.3960       199.2745       154.5681       125.7737
         455      2206.6780       200.3897       155.5705       126.3086
         456      2115.8120       201.5147       156.5809       126.8487
         457      1736.6331       202.6477       157.5975       127.3937
         458      1985.3590       203.7888       158.6205       127.9430
         459      2162.6230       204.9402       159.6533       128.4963
         460      1971.1620       206.0996       160.6933       129.0531
         461      2182.4890       207.2644       161.7373       129.6131
         462      2491.0750       208.4382       162.7904       130.1759
         463      2260.6340       209.6187       163.8500       130.7409
         464      2168.0359       210.8058       164.9161       131.3079
         465      2693.4160       211.9974       165.9865       131.8764
         466      2292.8340       213.1978       167.0669       132.4460
         467      2227.1580       214.4018       168.1511       133.0163
         468      2103.7261       215.6113       169.2418       133.5869
         469      2168.9919       216.8254       170.3380       134.1574
         470      2194.6111       218.0425       171.4383       134.7273
         471      2550.4829       219.2657       172.5465       135.2964
         472      2108.2090       220.4912       173.6585       135.8642
         473      2443.5061       221.7202       174.7759       136.4303
         474      2080.6870       222.9524       175.8987       136.9942
         475      2107.2910       224.1865       177.0255       137.5557
         476      2505.7080       225.4230       178.1572       138.1142
         477      2184.9910       226.6604       179.2923       138.6695
         478      2245.5259       227.9010       180.4338       139.2211
         479      2335.1831       229.1419       181.5785       139.7686
         480      2183.2839       230.3827       182.7261       140.3117
         481      2239.7600       231.6253       183.8794       140.8498
         482      1955.1100       232.8663       185.0341       141.3827
         483      2723.2700       234.1082       186.1940       141.9100
         484      2507.6069       235.3493       187.3570       142.4313
         485      1843.5170       236.5882       188.5216       142.9461
         486      2566.2371       237.8270       189.6908       143.4541
         487      2146.7529       239.0643       190.8631       143.9549
         488      2376.7019       240.2984       192.0366       144.4481
         489      2426.5010       241.5287       193.2109       144.9334
         490      2482.5139       242.7588       194.3906       145.4102
         491      2231.2500       243.9838       195.5699       145.8784
         492      2689.0510       245.2059       196.7519       146.3374
         493      2675.4729       246.4236       197.9349       146.7869
         494      2501.4929       247.6380       199.1203       147.2265
         495      2284.3391       248.8478       200.3071       147.6559
         496      2181.7251       250.0519       201.4941       148.0746
         497      2288.6909       251.2506       202.6817       148.4823
         498      2244.0020       252.4437       203.8700       148.8786
         499      2118.7051       253.6314       205.0595       149.2632
         500      3050.9570       254.8134       206.2500       149.6356
         501      3104.7629       255.9870       207.4385       149.9955
         502      2391.1001       257.1545       208.6275       150.3429
         503      2736.7720       258.3166       209.8182       150.6778
         504      2456.4709       259.4710       211.0075       151.0002
         505      2422.9590       260.6185       212.1964       151.3100
         506      2517.1250       261.7604       213.3864       151.6072
         507      2152.6489       262.8947       214.5750       151.8919
         508      2170.3020       264.0233       215.7646       152.1640
         509      2394.4729       265.1450       216.9536       152.4236
         510      2890.1270       266.2602       218.1425       152.6706
         511      2220.8850       267.3684       219.3306       152.9050
         512      3079.2339       268.4711       220.5196       153.1268
         513      2879.5659       269.5672       221.7082       153.3361
         514      2321.9270       270.6563       222.8958       153.5327
         515      2291.1431       271.7397       224.0839       153.7167
         516      2456.8330       272.8167       225.2718       153.8882
         517      2774.3169       273.8872       226.4591       154.0470
         518      2744.4480       274.9512       227.6458       154.1932
         519      2316.5139       276.0087       228.8319       154.3268
         520      2497.0581       277.0612       230.0191       154.4478
         521      2176.2649       278.1064       231.2047       154.5561
         522      2331.8210       279.1466       232.3911       154.6518
         523      2762.9871       280.1794       233.5757       154.7349
         524      2427.3240       281.2063       234.7601       154.8053
         525      2915.9939       282.2266       235.9434       154.8630
         526      2347.7009       283.2417       237.1273       154.9081
         527      2401.1831       284.2509       238.3107       154.9406
         528      3005.5320       285.2533       239.4927       154.9604
         529      2584.9839       286.2507       240.6753       154.9674
         530      2516.0161       287.2419       241.8569       154.9618
         531      2748.5220       288.2280       243.0388       154.9436
         532      2401.4541       289.2071       244.2189       154.9125
         533      2545.8621       290.1793       245.3970       154.8687
         534      2371.6870       291.1470       246.5761       154.8123
         535      3034.4270       292.1083       247.7537       154.7430
         536      2475.0161       293.0652       248.9322       154.6610
         537      2216.8540       294.0157       250.1091       154.5662
         538      2930.1399       294.9608       251.2855       154.4586
         539      2449.2170       295.8979       252.4585       154.3381
         540      3053.1040       296.8325       253.6343       154.2049
         541      2121.1160       297.7599       254.8075       154.0587
         542      1760.2070       298.6824       255.9806       153.8997
         543      2774.2500       299.5977       257.1509       153.7278
         544      2779.1021       300.5095       258.3225       153.5430
         545      2295.6350       301.4154       259.4928       153.3452
         546      2573.6160       302.3147       260.6608       153.1345
         547      2786.3181       303.2097       261.8290       152.9107
         548      3023.9441       304.0985       262.9953       152.6740
         549      2361.8750       304.9829       264.1618       152.4242
         550      1924.6490       305.8613       265.3264       152.1613
         551      2815.3921       306.7344       266.4898       151.8853
         552      2723.3579       307.6024       267.6522       151.5966
         553      2096.9221       308.4669       268.8151       151.2953
         554      2586.6021       309.3260       269.9760       150.9817
         555      2731.6809       310.1815       271.1370       150.6562
         556      2560.7939       311.0337       272.2980       150.3189
         557      2323.6741       311.8813       273.4574       149.9701
         558      2981.2219       312.7282       274.6192       149.6102
         559      2672.5410       313.5718       275.7804       149.2394
         560      2248.4900       314.4128       276.9418       148.8579
         561      2763.6169       315.2518       278.1034       148.4661
         562      2934.9390       316.0896       279.2663       148.0641
         563      2727.2339       316.9257       280.4294       147.6523
         564      3104.1379       317.7618       281.5947       147.2310
         565      2618.0110       318.5974       282.7613       146.8004
         566      2318.6299       319.4328       283.9293       146.3608
         567      2010.7419       320.2675       285.0980       145.9124
         568      2264.0430       321.1031       286.2689       145.4555
         569      1570.7939       321.9398       287.4422       144.9904
         570      2531.2061       322.7787       288.6189       144.5173
         571      2886.7859       323.6179       289.7965       144.0365
         572      2205.2219       324.4585       290.9762       143.5484
         573      2699.9570       325.3030       292.1607       143.0530
         574      2159.3459       326.1484       293.3464       142.5508
         575      2358.5669       326.9980       294.5366       142.0420
         576      2427.7891       327.8514       295.7308       141.5268
         577      2568.5090       328.7083       296.9286       141.0055
         578      2551.7620       329.5685       298.1296       140.4784
         579      2719.5940       330.4329       299.3344       139.9457
         580      2508.1169       331.3024       300.5442       139.4077
         581      3129.6931       332.1766       301.7580       138.8647
         582      2045.3170       333.0559       302.9764       138.3169
         583      2556.2310       333.9422       304.2011       137.7646
         584      2376.8149       334.8334       305.4297       137.2081
         585      2216.4839       335.7329       306.6659       136.6476
         586      2866.6780       336.6366       307.9050       136.0833
         587      2218.9790       337.5501       309.1531       135.5156
         588      2154.2410       338.4688       310.4047       134.9446
         589      2392.0720       339.3969       311.6645       134.3707
         590      1902.2700       340.3330       312.9308       133.7940
         591      2319.0249       341.2769       314.2033       133.2149
         592      2260.7600       342.2303       315.4836       132.6336
         593      1881.3680       343.1935       316.7720       132.0504
         594      2459.7471       344.1650       318.0667       131.4654
         595      1749.5341       345.1468       319.3697       130.8790
         596      2127.3411       346.1398       320.6820       130.2913
         597      2818.8501       347.1414       322.0006       129.7027
         598      2482.8369       348.1558       323.3299       129.1133
         599      2277.4509       349.1807       324.6673       128.5235
         600      2217.2310       350.2177       326.0146       127.9334
         601      2063.9590       344.8734       314.4820       141.5585
         602      2284.3799       345.5453       315.5432       140.8335
         603      2201.5930       346.2290       316.6129       140.1098
         604      1769.7061       346.9223       317.6889       139.3875
         605      1987.8540       347.6283       318.7741       138.6669
         606      3132.3569       348.3455       319.8669       137.9482
         607      2253.0879       349.0750       320.9686       137.2317
         608      2359.0491       349.8169       322.0789       136.5176
         609      1466.6050       350.5710       323.1976       135.8061
         610      2386.5029       351.3381       324.3256       135.0976
         611      1921.3400       352.1190       325.4636       134.3922
         612      2293.2891       352.9134       326.6111       133.6902
         613      1868.2410       353.7224       327.7692       132.9919
         614      2510.2151       354.5446       328.9366       132.2973
         615      1918.3390       355.3808       330.1138       131.6070
         616      2627.6550       356.2327       331.3027       130.9209
         617      2360.8110       357.0995       332.5023       130.2394
         618      2089.0620       357.9818       333.7132       129.5627
         619      1807.1190       358.8789       334.9345       128.8910
         620      2055.1440       359.7937       336.1695       128.2247
         621      1561.0510       360.7226       337.4141       127.5638
         622      2415.2429       361.6705       338.6735       126.9087
         623      1476.9430       362.6346       339.9447       126.2595
         624      1527.4700       363.6164       341.2292       125.6165
         625      1888.0439       364.6154       342.5265       124.9800
         626      1832.0850       365.6329       343.8378       124.3501
         627      2984.1260       366.6686       345.1629       123.7272
         628      2041.2209       367.7220       346.5011       123.1114
         629      1266.5560       368.7928       347.8522       122.5029
         630      2008.7820       369.8858       349.2211       121.9020
         631      1619.8850       370.9982       350.6049       121.3090
         632      1603.5980       372.1294       352.0029       120.7241
         633      1509.8420       373.2814       353.4170       120.1474
         634      2189.7209       374.4532       354.8464       119.5793
         635      2089.3269       375.6451       356.2913       119.0199
         636      1256.4690       376.8576       357.7522       118.4696
         637      1712.0160       378.0960       359.2346       117.9284
         638      1923.8340       379.3526       360.7303       117.3968
         639      2040.3640       380.6325       362.2449       116.8748
         640      1711.7600       381.9311       363.7734       116.3628
         641      1682.5940       383.2576       365.3254       115.8609
         642      2102.7429       384.6042       366.8928       115.3694
         643      2188.3611       385.9750       368.4797       114.8886
         644      2659.1270       387.3714       370.0878       114.4186
         645      1413.9810       388.7889       371.7122       113.9597
         646      1931.6870       390.2335       373.3593       113.5121
         647      2353.1589       391.7018       375.0255       113.0761
         648      2059.5879       393.1938       376.7106       112.6518
         649      1252.3101       394.7100       378.4155       112.2396
         650      2082.6960       396.2539       380.1435       111.8395
         651      1863.2111       397.8248       381.8941       111.4519
         652      1622.2930       399.4201       383.6644       111.0766
         653      1506.9460       401.0429       385.4580       110.7138
         654      1637.8320       402.6896       387.2710       110.3631
         655      2187.4670       404.3643       389.1080       110.0248
         656      1245.0090       406.0650       390.9667       109.6986
         657      1920.5480       407.7862       392.8417       109.3845
         658      1325.7280       409.5381       394.7436       109.0825
         659      1582.7350       411.3226       396.6743       108.7926
         660      1420.0800       413.1248       398.6185       108.5145
         661      1903.8831       414.9539       400.5858       108.2484
         662      1455.2090       416.8171       402.5839       107.9941
         663       997.7841       418.7055       404.6034       107.7516
         664      2627.9890       420.6156       406.6409       107.5208
         665      2091.6499       422.5510       408.7000       107.3017
         666      1714.4030       424.5196       410.7892       107.0942
         667      1809.0580       426.5032       412.8895       106.8982
         668      2109.7119       428.5161       415.0159       106.7137
         669      1408.1960       430.5584       417.1685       106.5406
         670      1880.3370       432.6316       419.3490       106.3789
         671      2187.7080       434.7320       421.5536       106.2285
         672      1155.0291       436.8501       423.7724       106.0893
         673      1328.4449       438.9983       426.0185       105.9613
         674      1526.2350       441.1736       428.2886       105.8444
         675      2171.9900       443.3788       430.5858       105.7386
         676      1360.9060       445.6010       432.8968       105.6438
         677      1439.1790       447.8639       435.2461       105.5599
         678      1842.6490       450.1450       437.6106       105.4870
         679      1969.9260       452.4524       439.9986       105.4248
         680      2044.0250       454.7889       442.4131       105.3734
         681      2063.6599       457.1528       444.8525       105.3327
         682      1269.7970       459.5344       447.3066       105.3027
         683      2027.4320       461.9598       449.8025       105.2833
         684      2583.0439       464.3970       452.3072       105.2745
         685      1337.2209       466.8610       454.8364       105.2762
         686      1782.8719       469.3560       457.3942       105.2883
         687      2414.7520       471.8803       459.9790       105.3109
         688      2018.0100       474.4382       462.5951       105.3438
         689      2304.4441       477.0078       465.2204       105.3871
         690      2372.4890       479.6015       467.8673       105.4406
         691      1594.5380       482.2316       470.5487       105.5044
         692      1151.5110       484.8883       473.2546       105.5783
         693      1318.0990       487.5784       475.9918       105.6625
         694      2866.2390       490.2776       478.7354       105.7568
         695      1108.4650       493.0164       481.5170       105.8611
         696       962.8554       495.7774       484.3185       105.9756
         697      1543.0240       498.5604       487.1399       106.1000
         698      2116.5300       501.3800       489.9961       106.2345
         699      1282.9060       504.2214       492.8720       106.3789
         700      1750.3590       507.0868       495.7697       106.5333
         701      1351.6570       509.9861       498.6998       106.6975
         702      1577.5900       512.9115       501.6539       106.8715
         703      1900.3459       515.8547       504.6240       107.0548
         704      1467.2990       518.8361       507.6306       107.2473
         705      2362.9231       521.8372       510.6553       107.4488
         706      2387.5339       524.8578       513.6976       107.6589
         707      1904.9110       527.9153       516.7756       107.8775
         708      1821.1600       530.9915       519.8706       108.1043
         709      2238.8191       534.1041       523.0008       108.3391
         710      1948.3669       537.2190       526.1314       108.5816
         711      2164.4209       540.3852       529.3126       108.8316
         712      2856.3420       543.5529       532.4936       109.0888
         713      2009.1760       546.7557       535.7086       109.3531
         714      1647.0811       549.9770       538.9409       109.6241
         715      1864.2111       553.2435       542.2176       109.9017
         716      1121.2450       556.4968       545.4795       110.1856
         717      2299.8120       559.8147       548.8057       110.4755
         718       932.3698       563.1189       552.1165       110.7713
         719      2494.1509       566.4688       555.4725       111.0727
         720      1762.4919       569.8330       558.8419       111.3795
         721      2070.0100       573.2190       562.2322       111.6914
         722      1256.1331       576.6437       565.6607       112.0081
         723      2442.6599       580.0710       569.0909       112.3295
         724      2150.2771       583.5297       572.5519       112.6553
         725      1084.0530       587.0154       576.0394       112.9853
         726      1823.6260       590.5194       579.5446       113.3192
         727      1705.8030       594.0329       583.0585       113.6569
         728      2707.7410       597.5931       586.6191       113.9980
         729      2026.6840       601.1494       590.1750       114.3422
         730      1454.0140       604.7475       593.7725       114.6896
         731      1906.0630       608.3592       597.3833       115.0396
         732      2185.4900       611.9982       601.0212       115.3921
         733      2799.4341       615.6502       604.6717       115.7469
         734      1853.9180       619.3150       608.3346       116.1038
         735      1412.5870       623.0179       612.0358       116.4625
         736      1769.0200       626.7326       615.7485       116.8227
         737      3782.9541       630.4747       619.4886       117.1842
         738      2396.7241       634.2223       623.2340       117.5469
         739      2792.3159       638.0155       627.0254       117.9104
         740      2300.2480       641.7999       630.8076       118.2746
         741      1597.2350       645.6220       634.6279       118.6392
         742      1651.1949       649.4728       638.4771       119.0039
         743      1708.5040       653.3136       642.3159       119.3687
         744      1954.0150       657.2102       646.2114       119.7331
         745      1428.1910       661.1089       650.1089       120.0971
         746      1918.7581       665.0220       654.0211       120.4604
         747      2714.5979       668.9525       657.9508       120.8227
         748      2736.2209       672.9213       661.9196       121.1839
         749      2550.1851       676.8967       665.8951       121.5437
         750      1762.5240       680.9084       669.9075       121.9020
         751      2187.7219       684.9253       673.9254       122.2584
         752      3131.7661       688.9613       677.9629       122.6129
         753      3700.7739       693.0208       682.0245       122.9653
         754      2405.4900       697.0966       686.1027       123.3153
         755      2209.3940       701.2079       690.2174       123.6627
         756       899.0288       705.3246       694.3377       124.0075
         757      1851.9410       709.4456       698.4628       124.3494
         758      3057.0500       713.6119       702.6342       124.6883
         759      1745.3480       717.7826       706.8104       125.0239
         760      2264.2290       721.9859       711.0200       125.3561
         761      2757.4021       726.1941       715.2351       125.6848
         762      1702.6160       730.4163       719.4648       126.0096
         763      2687.9971       734.6704       723.7273       126.3306
         764      2739.9900       738.9582       728.0244       126.6475
         765      1146.1500       743.2412       732.3172       126.9602
         766      2887.1499       747.5634       736.6503       127.2684
         767      2176.0859       751.8809       740.9792       127.5721
         768      3668.4919       756.2575       745.3686       127.8710
         769      3742.2170       760.6175       749.7417       128.1650
         770      1491.0170       765.0097       754.1482       128.4539
         771      2244.2920       769.4312       758.5849       128.7376
         772      2099.9121       773.8545       763.0240       129.0159
         773      3433.2190       778.2990       767.4853       129.2886
         774      2004.7910       782.7735       771.9778       129.5556
         775      1056.0260       787.2585       776.4816       129.8167
         776      3068.0171       791.7725       781.0154       130.0717
         777      1324.2810       796.2966       785.5602       130.3206
         778      1526.6770       800.8493       790.1347       130.5630
         779      1689.2760       805.4212       794.7295       130.7988
         780      2792.1680       810.0116       799.3438       131.0280
         781      2047.0510       814.6209       803.9780       131.2502
         782      1063.6980       819.2579       808.6410       131.4653
         783      1769.9050       823.9020       813.3121       131.6732
         784      1257.3669       828.5737       818.0120       131.8737
         785      2348.8750       833.2627       822.7303       132.0667
         786      2615.8831       837.9787       827.4767       132.2518
         787      3501.0659       842.6999       832.2293       132.4290
         788      2699.2251       847.4578       837.0199       132.5981
         789      1425.6920       852.2202       841.8161       132.7589
         790      2818.4561       856.9880       846.6186       132.9113
         791      2353.4099       861.8118       851.4786       133.0549
         792      2463.6260       866.6280       856.3320       133.1898
         793       409.7821       871.4821       861.2247       133.3156
         794      1938.7419       876.3362       866.1183       133.4323
         795      2672.6931       881.2361       871.0593       133.5396
         796      2702.2070       886.1167       875.9817       133.6373
         797      2744.9790       891.0518       880.9601       133.7254
         798      1540.4189       895.9991       885.9520       133.8035
         799      2430.7920       900.9467       890.9452       133.8715
         800      2579.3081       905.9263       895.9718       133.9293
         801       915.1481       910.9381       901.0319       133.9767
         802      3383.8921       915.9499       906.0930       134.0136
         803      2323.3201       920.9713       911.1649       134.0402
         804      3955.1641       926.0237       916.2689       134.0563
         805      5124.8662       931.1069       921.4051       134.0622
         806       448.6396       936.1895       926.5416       134.0577
         807      3210.0581       941.3035       931.7107       134.0429
         808      2799.6570       946.4339       936.8972       134.0178
         809      2061.7219       951.5863       942.1068       133.9826
         810      2298.4399       956.7682       947.3469       133.9372
         811      2744.7041       961.9583       952.5962       133.8815
         812      2663.2271       967.1697       957.8677       133.8158
         813       327.8144       972.3958       963.1549       133.7400
         814      1518.1121       977.6519       968.4729       133.6540
         815      2301.0181       982.9148       973.7986       133.5581
         816      2949.2710       988.2068       979.1543       133.4522
         817      3514.8030       993.5126       984.5246       133.3363
         818      1709.8660       998.8622       989.9397       133.2105
         819      2404.0869      1004.1943       995.3378       133.0748
         820      4444.7212      1009.5871      1000.7976       132.9294
         821      2966.2251      1014.9605      1006.2384       132.7741
         822      1336.3270      1020.3865      1011.7329       132.6090
         823      2721.5791      1025.8164      1017.2318       132.4343
         824      1825.5940      1031.2833      1022.7684       132.2499
         825      2637.4141      1036.7542      1028.3095       132.0559
         826      2076.9709      1042.2529      1033.8792       131.8524
         827      3204.3269      1047.7623      1039.4599       131.6393
         828      4594.8540      1053.3241      1045.0939       131.4168
         829      3247.7959      1058.8642      1050.7064       131.1848
         830      1855.7050      1064.4645      1056.3798       130.9434
         831       755.5573      1070.0747      1062.0637       130.6927
         832       615.4037      1075.6872      1067.7501       130.4327
         833      2987.1541      1081.3262      1073.4634       130.1634
         834      4301.2969      1087.0004      1079.2125       129.8849
         835      3333.0259      1092.7084      1084.9959       129.5973
         836      2485.9241      1098.4181      1090.7812       129.3004
         837      3236.6311      1104.1352      1096.5742       128.9945
         838      2709.3701      1109.9125      1102.4279       128.6795
         839      2725.7781      1115.6891      1108.2811       128.3555
         840      1468.0420      1121.4743      1114.1431       128.0224
         841      1344.3350      1127.3176      1120.0637       127.6804
         842      2306.4871      1133.1687      1125.9922       127.3294
         843      2765.8130      1139.0188      1131.9199       126.9695
         844      4404.4399      1144.9015      1137.8804       126.6008
         845      2776.7800      1150.8225      1143.8795       126.2231
         846      4132.1001      1156.7708      1149.9060       125.8366
         847      2706.8850      1162.7220      1155.9355       125.4412
         848      3427.1431      1168.7061      1161.9981       125.0370
         849      1661.3510      1174.6962      1168.0668       124.6240
         850      1803.9440      1180.7222      1174.1715       124.2022
         851      4532.4092      1186.7732      1180.3013       123.7717
         852      3420.1931      1192.8296      1186.4365       123.3325
         853      1422.8260      1198.9248      1192.6106       122.8849
         854      2322.9309      1205.0474      1198.8121       122.4290
         855      2010.0800      1211.2020      1205.0456       121.9651
         856       864.1081      1217.3674      1211.2897       121.4932
         857       569.0860      1223.5274      1217.5282       121.0137
         858      3297.3340      1229.7554      1223.8348       120.5265
         859      4677.6660      1235.9903      1230.1481       120.0320
         860      3103.2791      1242.2526      1236.4886       119.5301
         861      1000.8380      1248.5280      1242.8420       119.0213
         862      2435.1709      1254.8341      1249.2258       118.5055
         863      3831.3501      1261.1733      1255.6425       117.9830
         864      5334.7358      1267.5460      1262.0925       117.4540
         865      4888.3662      1273.9276      1268.5510       116.9185
         866      2148.4961      1280.3398      1275.0398       116.3768
         867      2884.2749      1286.7623      1281.5385       115.8290
         868       791.2484      1293.2463      1288.0984       115.2753
         869      1954.7620      1299.7345      1294.6621       114.7159
         870      1600.8101      1306.2361      1301.2388       114.1509
         871      1808.0430      1312.7959      1307.8733       113.5805
         872       626.9453      1319.3624      1314.5140       113.0049
         873        33.1942      1325.9661      1321.1915       112.4242
         874      2714.5869      1332.5823      1327.8809       111.8386
         875      3743.1389      1339.2566      1334.6280       111.2483
         876      1438.8230      1345.9394      1341.3832       110.6535
         877      3245.6631      1352.6332      1348.1486       110.0543
         878      3390.6870      1359.3910      1354.9776       109.4509
         879      1064.6250      1366.1560      1361.8133       108.8435
         880      4803.0791      1372.9633      1368.6906       108.2323
         881      4060.3740      1379.8039      1375.6007       107.6174
         882       435.8001      1386.6502      1382.5158       106.9990
         883      1151.8600      1393.5399      1389.4738       106.3774
         884       925.4393      1400.4681      1396.4696       105.7526
         885      1937.4510      1407.4005      1403.4689       105.1249
         886      1774.0140      1414.4058      1410.5406       104.4945
         887      1876.8230      1421.4200      1417.6204       103.8615
         888      4133.6519      1428.4745      1424.7398       103.2261
         889      1696.1700      1435.5338      1431.8635       102.5885
         890      1558.2750      1442.6687      1439.0620       101.9489
         891      2315.9880      1449.8066      1446.2627       101.3075
         892      1593.3080      1456.9909      1453.5092       100.6644
         893      2282.7041      1464.1840      1460.7638       100.0198
         894      1320.8250      1471.4474      1468.0879        99.3739
         895      3335.9141      1478.7251      1475.4257        98.7270
         896      -334.0409      1486.0411      1482.8010        98.0790
         897      4086.5259      1493.3964      1490.2149        97.4303
         898      1253.5750      1500.7959      1497.6721        96.7810
         899      1234.7690      1508.2089      1505.1422        96.1313
         900       751.0816      1515.6653      1512.6548        95.4813
         901      6940.1802      1523.1596      1520.2046        94.8313
         902      2931.0569      1530.7014      1527.8013        94.1813
         903      5227.3281      1538.2832      1535.4371        93.5315
         904      2130.4131      1545.9128      1543.1200        92.8822
         905      2477.7109      1553.5521      1550.8118        92.2333
         906      2137.5081      1561.2351      1558.5465        91.5852
         907      2585.9500      1568.9648      1566.3271        90.9379
         908      4256.3750      1576.7376      1574.1502        90.2915
         909       602.3072      1584.5556      1582.0177        89.6463
         910      1280.5410      1592.3879      1589.8986        89.0023
         911      2944.7419      1600.2947      1597.8535        88.3597
         912      1101.9091      1608.2177      1605.8237        87.7187
         913      2150.5620      1616.2160      1613.8684        87.0793
         914       -53.8258      1624.2306      1621.9287        86.4417
         915      2695.0940      1632.2915      1630.0346        85.8060
         916     -1090.9041      1640.3990      1638.1864        85.1724
         917      5511.2520      1648.5203      1646.3511        84.5410
         918      1333.8770      1656.7211      1654.5947        83.9119
         919      1843.1440      1664.9674      1662.8831        83.2852
         920      2425.7830      1673.2317      1671.1887        82.6610
         921      1251.3130      1681.5724      1679.5700        82.0396
         922     -2506.3359      1689.9315      1687.9690        81.4209
         923      1026.6360      1698.3741      1696.4508        80.8052
         924      2840.1631      1706.8266      1704.9417        80.1925
         925       518.4406      1715.3616      1713.5145        79.5829
         926       503.8762      1723.9166      1722.1066        78.9767
         927      2406.3750      1732.5108      1730.7372        78.3739
         928      1476.1270      1741.1542      1739.4163        77.7746
         929      1929.5000      1749.8790      1748.1761        77.1790
         930       910.8189      1758.6545      1756.9861        76.5872
         931      1949.2970      1767.4760      1765.8413        75.9993
         932      1861.0350      1776.3120      1774.7104        75.4155
         933      2766.0281      1785.2303      1783.6610        74.8358
         934      2491.1050      1794.1947      1792.6572        74.2605
         935      -405.5936      1803.2050      1801.6986        73.6896
         936      3189.4160      1812.2961      1810.8203        73.1233
         937      7059.3081      1821.4013      1819.9553        72.5617
         938      2074.8269      1830.5845      1829.1679        72.0050
         939       775.2778      1839.8457      1838.4577        71.4534
         940      1241.3290      1849.1195      1847.7595        70.9068
         941      4811.8848      1858.4704      1857.1377        70.3656
         942       361.1602      1867.8349      1866.5291        69.8298
         943      1554.4500      1877.3091      1876.0296        69.2996
         944     -1648.0780      1886.8233      1885.5694        68.7752
         945      3009.7930      1896.3846      1895.1558        68.2566
         946      2511.4600      1906.0210      1904.8167        67.7441
         947       -42.3724      1915.6997      1914.5194        67.2379
         948      3675.0620      1925.4565      1924.2996        66.7380
         949      2379.5000      1935.2501      1934.1160        66.2446
         950      2629.4929      1945.1209      1944.0090        65.7579
         951       -69.9066      1955.0345      1953.9444        65.2780
         952      1819.3850      1965.0527      1963.9838        64.8050
         953     -1665.7111      1975.0773      1974.0290        64.3389
         954      -485.9372      1985.2398      1984.2118        63.8796
         955      2212.9150      1995.4087      1994.4003        63.4273
         956      4713.9102      2005.6180      2004.6289        62.9819
         957      1243.7419      2015.9285      2014.9581        62.5435
         958       354.2331      2026.3393      2025.3871        62.1120
         959       781.2919      2036.7290      2035.7946        61.6876
         960      -694.8218      2047.2441      2046.3270        61.2701
         961      2339.4890      2057.8324      2056.9323        60.8597
         962      2144.8391      2068.4597      2067.5759        60.4563
         963       969.8011      2079.1494      2078.2818        60.0599
         964      -893.6281      2089.9120      2089.0600        59.6706
         965     -1612.1541      2100.7357      2099.8989        59.2883
         966     -3178.2170      2111.6202      2110.7982        58.9131
         967      3934.9771      2122.5769      2121.7694        58.5449
         968       694.4965      2133.6285      2132.8350        58.1839
         969      3285.3831      2144.7389      2143.9591        57.8298
         970      -920.4310      2155.9211      2155.1547        57.4829
         971      3255.2351      2167.1609      2166.4074        57.1430
         972      -479.3230      2178.4712      2177.7304        56.8102
         973      3247.0330      2189.8599      2189.1314        56.4844
         974      2389.1841      2201.3186      2200.6020        56.1656
         975      2418.8879      2212.8485      2212.1435        55.8538
         976      2388.6299      2224.4536      2223.7598        55.5491
         977      3440.0071      2236.1282      2235.4456        55.2513
         978      4106.1030      2247.8567      2247.1847        54.9605
         979     -1484.4490      2259.6748      2259.0132        54.6767
         980     -3502.3259      2271.5818      2270.9303        54.3998
         981      1532.3220      2283.5579      2282.9163        54.1298
         982      1130.0430      2295.6045      2294.9723        53.8667
         983      2975.9031      2307.7190      2307.0962        53.6105
         984      1063.4630      2319.9220      2319.3082        53.3611
         985     -1297.1639      2332.1746      2331.5696        53.1186
         986      1317.6300      2344.5508      2343.9544        52.8829
         987      -373.8928      2356.9751      2356.3869        52.6541
         988      3814.2461      2369.4856      2368.9055        52.4320
         989      4410.9702      2382.0637      2381.4913        52.2167
         990      3531.7981      2394.7070      2394.1422        52.0081
         991      2689.2090      2407.4721      2406.9147        51.8063
         992      2162.6919      2420.2834      2419.7330        51.6113
         993      3114.5801      2433.2163      2432.6729        51.4230
         994      2694.8970      2446.1944      2445.6577        51.2414
         995     -1058.8160      2459.2560      2458.7258        51.0666
         996      3285.9221      2472.4003      2471.8763        50.8985
         997      1812.4000      2485.6264      2485.1086        50.7371
         998     -1326.1050      2498.9891      2498.4772        50.5825
         999      3783.4189      2512.3952      2511.8889        50.4346
        1000      -448.4350      2525.8825      2525.3818        50.2935
        1001     -3438.7290      2539.4505      2538.9551        50.1592
        1002      3812.9680      2553.1375      2552.6472        50.0315
        1003      4009.8711      2566.8816      2566.3963        49.9104
        1004      1140.2140      2580.7052      2580.2247        49.7958
        1005      1484.6219      2594.6470      2594.1712        49.6875
        1006      1815.3600      2608.6675      2608.1962        49.5856
        1007      7818.6909      2622.7811      2622.3141        49.4899
        1008      3585.4509      2636.9878      2636.5250        49.4003
        1009     -4639.5610      2651.2709      2650.8121        49.3167
        1010      2586.7781      2665.6701      2665.2153        49.2390
        1011       506.2173      2680.1221      2679.6711        49.1673
        1012      -933.1741      2694.6893      2694.2419        49.1013
        1013      2378.1489      2709.3457      2708.9018        49.0410
        1014      2836.4290      2724.1174      2723.6769        48.9863
        1015       361.2068      2738.9385      2738.5013        48.9372
        1016       392.5322      2753.8866      2753.4525        48.8936
        1017      -797.0198      2768.9225      2768.4914        48.8553
        1018     -1323.0690      2784.0718      2783.6437        48.8224
        1019      -259.3285      2799.3064      2798.8810        48.7947
        1020      -439.0722      2814.6271      2814.2046        48.7721
        1021      2342.4270      2830.0619      2829.6419        48.7547
        1022     -2128.2180      2845.5916      2845.1741        48.7422
        1023       667.6908      2861.2340      2860.8190        48.7346
        1024     -1333.4440      2876.9723      2876.5596        48.7318
        1025      4847.6670      2892.7816      2892.3711        48.7338
        1026      2209.4309      2908.7134      2908.3050        48.7404
        1027     -6886.8999      2924.7776      2924.3712        48.7516
        1028        26.3139      2940.9233      2940.5190        48.7672
        1029      1939.0320      2957.1406      2956.7381        48.7872
        1030       351.7960      2973.4884      2973.0878        48.8114
        1031      3217.6770      2989.9265      2989.5275        48.8398
        1032      4230.4111      3006.4741      3006.0768        48.8723
        1033      5031.7949      3023.1499      3022.7543        48.9087
        1034      3290.0210      3039.9542      3039.5601        48.9490
        1035     -3891.2310      3056.8365      3056.4439        48.9929
        1036      1161.6550      3073.7973      3073.4061        49.0406
        1037        43.8711      3090.8843      3090.4944        49.0917
        1038      1417.0010      3108.0873      3107.6987        49.1462
        1039     -6062.1841      3125.4247      3125.0373        49.2040
        1040       712.4432      3142.8292      3142.4430        49.2649
        1041      3816.5830      3160.3661      3159.9811        49.3289
        1042      -529.5645      3178.0273      3177.6434        49.3958
        1043     -1981.0690      3195.7620      3195.3792        49.4655
        1044     -1422.2610      3213.6591      3213.2772        49.5379
        1045     -3887.6411      3231.6385      3231.2576        49.6128
        1046       728.3358      3249.7373      3249.3574        49.6902
        1047     -1098.9969      3267.9669      3267.5879        49.7698
        1048      8555.2461      3286.2662      3285.8881        49.8517
        1049      2858.7791      3304.7251      3304.3478        49.9356
        1050      1070.7850      3323.3118      3322.9353        50.0215
        1051       515.8809      3341.9761      3341.6004        50.1092
        1052      2516.0110      3360.7655      3360.3905        50.1986
        1053     -1245.6570      3379.7050      3379.3308        50.2896
        1054      4344.7422      3398.7353      3398.3620        50.3821
        1055      3285.6760      3417.8745      3417.5018        50.4759
        1056      -763.7426      3437.1367      3436.7647        50.5710
        1057     -1039.5190      3456.5608      3456.1895        50.6671
        1058      4594.5469      3476.0658      3475.6951        50.7643
        1059      2634.7900      3495.7255      3495.3555        50.8623
        1060       835.7601      3515.5042      3515.1348        50.9612
        1061     -1216.7620      3535.3637      3534.9950        51.0607
        1062      3786.2830      3555.3814      3555.0134        51.1608
        1063     -2501.4751      3575.5177      3575.1502        51.2614
        1064     -5145.4409      3595.8057      3595.4389        51.3624
        1065      2164.4651      3616.1769      3615.8106        51.4638
        1066      -193.2749      3636.7054      3636.3398        51.5653
        1067     -4908.0000      3657.3498      3656.9848        51.6670
        1068      3940.5581      3678.1162      3677.7518        51.7688
        1069      9688.9463      3699.0315      3698.6678        51.8706
        1070      2723.8010      3720.0678      3719.7048        51.9723
        1071      3539.6831      3741.2647      3740.9024        52.0738
        1072      3000.3340      3762.5339      3762.1722        52.1751
        1073     -6217.0801      3783.9979      3783.6367        52.2761
        1074     -4281.3730      3805.5391      3805.1786        52.3767
        1075      2711.5181      3827.2380      3826.8783        52.4770
        1076     -1613.0260      3849.0951      3848.7360        52.5767
        1077      4784.8608      3871.0630      3870.7045        52.6758
        1078       539.8900      3893.1868      3892.8291        52.7744
        1079      -559.9529      3915.4318      3915.0749        52.8722
        1080      7705.3218      3937.8276      3937.4713        52.9693
        1081     -1984.4130      3960.3364      3959.9808        53.0655
        1082     -3571.8040      3983.0461      3982.6912        53.1608
        1083      4626.0132      4005.8638      4005.5098        53.2552
        1084       248.9621      4028.7981      4028.4449        53.3485
        1085     -6084.0278      4051.9320      4051.5796        53.4407
        1086      2399.0449      4075.1366      4074.7849        53.5317
        1087       -92.5630      4098.5330      4098.1823        53.6214
        1088      3293.2830      4122.0907      4121.7408        53.7097
        1089      8285.7373      4145.7985      4145.4495        53.7966
        1090      3524.7129      4169.6150      4169.2668        53.8819
        1091     -3665.5310      4193.6326      4193.2854        53.9656
        1092      3428.2600      4217.7624      4217.4161        54.0476
        1093       177.5879      4242.0850      4241.7396        54.1277
        1094      9105.8184      4266.5207      4266.1763        54.2058
        1095     -1596.8890      4291.1108      4290.7674        54.2820
        1096     -3808.3401      4315.8945      4315.5521        54.3559
        1097      1366.7880      4340.8278      4340.4866        54.4276
        1098     -1500.0920      4365.9197      4365.5795        54.4969
        1099     -2579.4050      4391.1617      4390.8228        54.5637
        1100     12814.8896      4416.7205      4416.3826        54.6278
        1101      1198.1270      4441.9370      4441.6003        54.6892
        1102      5642.3838      4467.9676      4467.6320        54.7478
        1103       571.2368      4493.5688      4493.2345        54.8036
        1104      3658.7119      4519.9882      4519.6552        54.8565
        1105       702.7128      4545.9764      4545.6448        54.9065
        1106      -773.6295      4572.3698      4572.0395        54.9535
        1107     -4217.0688      4599.1584      4598.8296        54.9975
        1108      7722.1821      4625.9364      4625.6090        55.0384
        1109      9119.1729      4652.6999      4652.3738        55.0763
        1110      3753.3831      4679.8659      4679.5414        55.1109
        1111      4536.8149      4707.0116      4706.6886        55.1424
        1112      4246.8462      4734.5650      4734.2437        55.1707
        1113      1698.1720      4762.1023      4761.7824        55.1956
        1114       527.6322      4790.0369      4789.7185        55.2173
        1115     -8345.7354      4817.9594      4817.6428        55.2356
        1116       222.0466      4846.2827      4845.9676        55.2505
        1117     -1133.6429      4874.5892      4874.2759        55.2620
        1118      -430.6934      4902.8828      4902.5713        55.2700
        1119      6019.3179      4931.9903      4931.6806        55.2746
        1120      1766.0450      4960.6703      4960.3623        55.2756
        1121      3788.6370      4989.7464      4989.4401        55.2732
        1122       541.7925      5019.2240      5018.9197        55.2672
        1123      2557.3540      5048.6862      5048.3839        55.2576
        1124      3947.1030      5078.5482      5078.2477        55.2445
        1125     -6604.8052      5108.3974      5108.0989        55.2279
        1126      7115.9492      5138.2284      5137.9318        55.2076
        1127     16424.5000      5168.8707      5168.5761        55.1838
        1128     -6309.2349      5199.0877      5198.7951        55.1565
        1129      -507.4015      5230.1167      5229.8262        55.1256
        1130      2115.5310      5260.7162      5260.4277        55.0912
        1131     -2831.5591      5292.1294      5291.8431        55.0533
        1132      1200.3680      5323.5231      5323.2389        55.0118
        1133      2765.9490      5354.9015      5354.6193        54.9669
        1134     -6352.0898      5386.6778      5386.3978        54.9185
        1135      7701.0718      5418.4394      5418.1616        54.8666
        1136      5745.1670      5451.0132      5450.7376        54.8114
        1137     -4427.8359      5483.1560      5482.8826        54.7527
        1138      4054.2290      5515.6970      5515.4259        54.6907
        1139      6414.7271      5548.6351      5548.3663        54.6253
        1140      9249.5410      5581.9691      5581.7025        54.5566
        1141      3219.5969      5614.8689      5614.6046        54.4845
        1142     -1792.8600      5648.5820      5648.3199        54.4092
        1143       901.3647      5682.2738      5682.0142        54.3306
        1144       799.9766      5716.3653      5716.1079        54.2488
        1145     -7180.6719      5750.4383      5750.1833        54.1637
        1146      -328.1484      5784.9062      5784.6534        54.0754
        1147       528.6764      5819.7720      5819.5216        53.9839
        1148      -170.6949      5854.6021      5854.3541        53.8892
        1149     -4430.5552      5889.4144      5889.1688        53.7912
        1150      2654.0081      5925.0613      5924.8179        53.6900
        1151      7975.2979      5960.6625      5960.4216        53.5857
        1152     -4179.2588      5996.2505      5996.0122        53.4781
        1153    -10697.7402      6032.6444      6032.4082        53.3675
        1154      3582.1421      6069.0146      6068.7809        53.2539
        1155     12492.5498      6105.3625      6105.1312        53.1373
        1156      6290.5112      6142.1035      6141.8747        53.0178
        1157       835.1139      6179.2356      6179.0094        52.8954
        1158      1366.2460      6216.7570      6216.5330        52.7702
        1159     -5609.4321      6254.2555      6254.0339        52.6423
        1160      5327.1250      6292.1389      6291.9198        52.5116
        1161    -13893.7402      6330.0140      6329.7973        52.3782
        1162      9374.6211      6368.2554      6368.0411        52.2421
        1163    -10416.9004      6406.9030      6406.6912        52.1034
        1164      7718.6040      6445.9376      6445.7283        51.9621
        1165     -5497.8892      6484.9314      6484.7244        51.8181
        1166     -4377.4229      6524.3317      6524.1270        51.6716
        1167      6667.5068      6564.1065      6563.9043        51.5225
        1168      8230.4414      6603.8450      6603.6451        51.3708
        1169      -627.5435      6643.9838      6643.7864        51.2166
        1170     -1487.2371      6684.5084      6684.3132        51.0599
        1171      -511.9442      6725.4131      6725.2205        50.9006
        1172     -4910.3418      6766.2944      6766.1041        50.7389
        1173      1865.3490      6807.5565      6807.3687        50.5747
        1174      4952.4360      6849.2019      6849.0162        50.4080
        1175      1756.6000      6891.2289      6891.0456        50.2389
        1176     13139.4502      6933.2243      6933.0435        50.0674
        1177     21709.6406      6975.6047      6975.4263        49.8935
        1178      1226.2220      7018.3647      7018.1885        49.7172
        1179     -2507.5400      7061.0940      7060.9202        49.5386
        1180       217.3608      7104.6214      7104.4501        49.3576
        1181      2703.8330      7148.1159      7147.9468        49.1745
        1182     -9813.3486      7191.9909      7191.8239        48.9890
        1183      2142.8379      7236.2419      7236.0774        48.8015
        1184      5734.0298      7280.4649      7280.3025        48.6118
        1185     -6716.3232      7325.4788      7325.3187        48.4200
        1186      5215.6641      7370.4503      7370.2926        48.2262
        1187      9073.2578      7415.8091      7415.6534        48.0305
        1188      1563.7650      7461.5514      7461.3979        47.8329
        1189     -7508.2251      7507.6709      7507.5198        47.6336
        1190     -2676.5801      7554.1576      7554.0087        47.4324
        1191    -11949.5000      7600.6145      7600.4676        47.2297
        1192     -2751.3721      7647.4586      7647.3140        47.0254
        1193      7051.8052      7695.0834      7694.9409        46.8196
        1194     -5629.5298      7742.6787      7742.5385        46.6125
        1195     -4570.9741      7790.6468      7790.5086        46.4041
        1196     -3084.5239      7839.0014      7838.8653        46.1945
        1197     -8941.8838      7887.3118      7887.1778        45.9838
        1198      4377.9082      7936.4126      7936.2806        45.7721
        1199     -1335.0040      7985.8898      7985.7596        45.5595
        1200     -1051.9740      8035.3372      8035.2093        45.3461
